 ******* Program SOILCO2
 *******  Zalf Lysimeter Dedelow Dd_2_6 with Nitrogen                            
 Units: L = cm  , T = day , M = kg  
#Node    Depth      Head Moisture           CO2    Temp           K           C        Flux        Sink     Product      Urea_w      Urea_s       NH4_w       NH4_s       NO3_w       NO3_s
#          [L]       [L]      [-]           [-]     [C]       [L/T]       [1/L]       [L/T]       [1/T]       [1/T]    [M/L**3][M/(M soil)]    [M/L**3][M/(M soil)]    [M/L**3][M/(M soil)]
#Time:       0
  218     0.00     -42.7    0.360    0.4200E-03  21.300   5.125E+00   6.799E-04  -5.125E+00   0.000E+00   1.047E-03   0.000E+00   0.000E+00   1.470E-10   0.000E+00   9.905E-07   0.000E+00
  217    -0.10     -42.7    0.360    0.5059E-03  21.283   5.125E+00   6.799E-04  -5.125E+00   0.000E+00   1.047E-03   0.000E+00   0.000E+00   1.465E-10   0.000E+00   9.859E-07   0.000E+00
  216    -0.20     -42.7    0.360    0.5917E-03  21.267   5.125E+00   6.799E-04  -5.125E+00   0.000E+00   1.047E-03   0.000E+00   0.000E+00   1.460E-10   0.000E+00   9.812E-07   0.000E+00
  215    -0.30     -42.7    0.360    0.6776E-03  21.250   5.125E+00   6.799E-04  -5.125E+00   0.000E+00   1.047E-03   0.000E+00   0.000E+00   1.455E-10   0.000E+00   9.766E-07   0.000E+00
  214    -0.40     -42.7    0.360    0.7634E-03  21.233   5.125E+00   6.799E-04  -5.125E+00   0.000E+00   1.047E-03   0.000E+00   0.000E+00   1.450E-10   0.000E+00   9.719E-07   0.000E+00
  213    -0.50     -42.7    0.360    0.8493E-03  21.217   5.125E+00   6.799E-04  -5.125E+00   0.000E+00   1.047E-03   0.000E+00   0.000E+00   1.445E-10   0.000E+00   9.673E-07   0.000E+00
  212    -0.60     -42.7    0.360    0.9352E-03  21.200   5.125E+00   6.799E-04  -5.125E+00   0.000E+00   1.047E-03   0.000E+00   0.000E+00   1.440E-10   0.000E+00   9.626E-07   0.000E+00
  211    -0.70     -42.7    0.360    0.1021E-02  21.183   5.125E+00   6.799E-04  -5.125E+00   0.000E+00   1.047E-03   0.000E+00   0.000E+00   1.435E-10   0.000E+00   9.580E-07   0.000E+00
  210    -0.80     -42.7    0.360    0.1107E-02  21.166   5.125E+00   6.799E-04  -5.125E+00   0.000E+00   1.047E-03   0.000E+00   0.000E+00   1.430E-10   0.000E+00   9.534E-07   0.000E+00
  209    -0.90     -42.7    0.360    0.1193E-02  21.150   5.125E+00   6.799E-04  -5.125E+00   0.000E+00   1.047E-03   0.000E+00   0.000E+00   1.425E-10   0.000E+00   9.487E-07   0.000E+00
  208    -1.00     -42.7    0.360    0.1279E-02  21.133   5.125E+00   6.799E-04  -5.125E+00   0.000E+00   1.047E-03   0.000E+00   0.000E+00   1.420E-10   0.000E+00   9.441E-07   0.000E+00
  207    -1.50     -42.7    0.360    0.1708E-02  21.050   5.125E+00   6.799E-04  -5.125E+00   0.000E+00   1.047E-03   0.000E+00   0.000E+00   1.394E-10   0.000E+00   9.209E-07   0.000E+00
  206    -2.00     -42.7    0.360    0.2137E-02  20.966   5.125E+00   6.799E-04  -5.125E+00   0.000E+00   1.047E-03   0.000E+00   0.000E+00   1.369E-10   0.000E+00   8.976E-07   0.000E+00
  205    -2.50     -42.7    0.360    0.2567E-02  20.883   5.125E+00   6.799E-04  -5.125E+00   0.000E+00   1.047E-03   0.000E+00   0.000E+00   1.343E-10   0.000E+00   8.744E-07   0.000E+00
  204    -3.00     -42.7    0.360    0.2996E-02  20.799   5.125E+00   6.799E-04  -5.125E+00   0.000E+00   1.047E-03   0.000E+00   0.000E+00   1.318E-10   0.000E+00   8.512E-07   0.000E+00
  203    -3.50     -42.7    0.360    0.3425E-02  20.716   5.125E+00   6.799E-04  -5.125E+00   0.000E+00   1.047E-03   0.000E+00   0.000E+00   1.292E-10   0.000E+00   8.280E-07   0.000E+00
  202    -4.00     -42.7    0.360    0.3854E-02  20.632   5.125E+00   6.799E-04  -5.125E+00   0.000E+00   1.047E-03   0.000E+00   0.000E+00   1.267E-10   0.000E+00   8.048E-07   0.000E+00
  201    -4.50     -42.7    0.360    0.4284E-02  20.549   5.125E+00   6.799E-04  -5.125E+00   0.000E+00   1.047E-03   0.000E+00   0.000E+00   1.242E-10   0.000E+00   7.816E-07   0.000E+00
  200    -5.00     -42.7    0.360    0.4713E-02  20.466   5.125E+00   6.799E-04  -5.125E+00   0.000E+00   1.047E-03   0.000E+00   0.000E+00   1.216E-10   0.000E+00   7.584E-07   0.000E+00
  199    -5.50     -42.7    0.360    0.5142E-02  20.382   5.125E+00   6.799E-04  -5.125E+00   0.000E+00   1.047E-03   0.000E+00   0.000E+00   1.191E-10   0.000E+00   7.352E-07   0.000E+00
  198    -6.00     -42.7    0.360    0.5572E-02  20.299   5.125E+00   6.799E-04  -5.125E+00   0.000E+00   1.047E-03   0.000E+00   0.000E+00   1.165E-10   0.000E+00   7.119E-07   0.000E+00
  197    -6.50     -42.7    0.360    0.6001E-02  20.215   5.125E+00   6.799E-04  -5.125E+00   0.000E+00   1.047E-03   0.000E+00   0.000E+00   1.140E-10   0.000E+00   6.887E-07   0.000E+00
  196    -7.00     -42.7    0.360    0.6430E-02  20.132   5.125E+00   6.799E-04  -5.125E+00   0.000E+00   1.047E-03   0.000E+00   0.000E+00   1.114E-10   0.000E+00   6.655E-07   0.000E+00
  195    -7.50     -42.7    0.360    0.6860E-02  20.048   5.125E+00   6.799E-04  -5.125E+00   0.000E+00   1.047E-03   0.000E+00   0.000E+00   1.089E-10   0.000E+00   6.423E-07   0.000E+00
  194    -8.00     -42.7    0.360    0.7289E-02  19.965   5.125E+00   6.799E-04  -5.125E+00   0.000E+00   1.047E-03   0.000E+00   0.000E+00   1.064E-10   0.000E+00   6.191E-07   0.000E+00
  193    -8.50     -42.7    0.360    0.7718E-02  19.881   5.125E+00   6.799E-04  -5.125E+00   0.000E+00   1.047E-03   0.000E+00   0.000E+00   1.038E-10   0.000E+00   5.959E-07   0.000E+00
  192    -9.00     -42.7    0.360    0.8148E-02  19.798   5.125E+00   6.799E-04  -5.125E+00   0.000E+00   1.047E-03   0.000E+00   0.000E+00   1.013E-10   0.000E+00   5.727E-07   0.000E+00
  191    -9.50     -42.7    0.360    0.8577E-02  19.714   5.125E+00   6.799E-04  -5.125E+00   0.000E+00   1.047E-03   0.000E+00   0.000E+00   9.873E-11   0.000E+00   5.495E-07   0.000E+00
  190   -10.00     -42.7    0.360    0.9006E-02  19.631   5.125E+00   6.799E-04  -5.125E+00   0.000E+00   1.047E-03   0.000E+00   0.000E+00   9.619E-11   0.000E+00   5.262E-07   0.000E+00
  189   -10.50     -42.7    0.360    0.9436E-02  19.548   5.125E+00   6.799E-04  -5.125E+00   0.000E+00   1.047E-03   0.000E+00   0.000E+00   9.364E-11   0.000E+00   5.030E-07   0.000E+00
  188   -11.00     -42.7    0.360    0.9865E-02  19.464   5.125E+00   6.799E-04  -5.125E+00   0.000E+00   1.047E-03   0.000E+00   0.000E+00   9.110E-11   0.000E+00   4.798E-07   0.000E+00
  187   -11.50     -42.7    0.360    0.1029E-01  19.381   5.125E+00   6.799E-04  -5.125E+00   0.000E+00   1.047E-03   0.000E+00   0.000E+00   8.856E-11   0.000E+00   4.566E-07   0.000E+00
  186   -12.00     -42.7    0.360    0.1072E-01  19.297   5.125E+00   6.799E-04  -5.125E+00   0.000E+00   1.047E-03   0.000E+00   0.000E+00   8.601E-11   0.000E+00   4.334E-07   0.000E+00
  185   -12.50     -42.7    0.360    0.1115E-01  19.214   5.125E+00   6.799E-04  -5.125E+00   0.000E+00   1.047E-03   0.000E+00   0.000E+00   8.347E-11   0.000E+00   4.102E-07   0.000E+00
  184   -13.00     -42.7    0.360    0.1158E-01  19.130   5.125E+00   6.799E-04  -5.125E+00   0.000E+00   1.047E-03   0.000E+00   0.000E+00   8.093E-11   0.000E+00   3.870E-07   0.000E+00
  183   -13.50     -42.7    0.360    0.1201E-01  19.047   5.125E+00   6.799E-04  -5.125E+00   0.000E+00   1.047E-03   0.000E+00   0.000E+00   7.838E-11   0.000E+00   3.638E-07   0.000E+00
  182   -14.00     -42.7    0.360    0.1244E-01  18.963   5.125E+00   6.799E-04  -5.125E+00   0.000E+00   1.047E-03   0.000E+00   0.000E+00   7.584E-11   0.000E+00   3.405E-07   0.000E+00
  181   -14.50     -42.7    0.360    0.1287E-01  18.880   5.125E+00   6.799E-04  -9.449E+00   0.000E+00   1.047E-03   0.000E+00   0.000E+00   7.330E-11   0.000E+00   3.173E-07   0.000E+00
  180   -15.00     -43.6    0.359    0.1304E-01  18.846   4.945E+00   6.799E-04  -1.358E+01   0.000E+00   1.047E-03   0.000E+00   0.000E+00   7.229E-11   0.000E+00   3.129E-07   0.000E+00
  179   -15.50     -44.4    0.358    0.1322E-01  18.812   4.762E+00   6.799E-04  -1.319E+01   0.000E+00   1.047E-03   0.000E+00   0.000E+00   7.128E-11   0.000E+00   3.085E-07   0.000E+00
  178   -16.00     -45.3    0.357    0.1339E-01  18.778   4.577E+00   6.799E-04  -1.278E+01   0.000E+00   1.047E-03   0.000E+00   0.000E+00   7.027E-11   0.000E+00   3.040E-07   0.000E+00
  177   -16.50     -46.2    0.355    0.1356E-01  18.745   4.390E+00   6.799E-04  -1.236E+01   0.000E+00   1.047E-03   0.000E+00   0.000E+00   6.926E-11   0.000E+00   2.996E-07   0.000E+00
  176   -17.00     -47.1    0.354    0.1374E-01  18.711   4.200E+00   6.799E-04  -1.194E+01   0.000E+00   1.047E-03   0.000E+00   0.000E+00   6.825E-11   0.000E+00   2.951E-07   0.000E+00
  175   -17.50     -48.1    0.353    0.1391E-01  18.677   4.030E+00   6.799E-04  -1.157E+01   0.000E+00   1.047E-03   0.000E+00   0.000E+00   6.724E-11   0.000E+00   2.907E-07   0.000E+00
  174   -18.00     -49.0    0.352    0.1408E-01  18.643   3.898E+00   6.799E-04  -1.126E+01   0.000E+00   1.047E-03   0.000E+00   0.000E+00   6.623E-11   0.000E+00   2.863E-07   0.000E+00
  173   -18.50     -50.0    0.351    0.1425E-01  18.609   3.764E+00   6.799E-04  -1.097E+01   0.000E+00   1.047E-03   0.000E+00   0.000E+00   6.522E-11   0.000E+00   2.818E-07   0.000E+00
  172   -19.00     -50.9    0.350    0.1443E-01  18.575   3.629E+00   6.799E-04  -1.067E+01   0.000E+00   1.047E-03   0.000E+00   0.000E+00   6.422E-11   0.000E+00   2.774E-07   0.000E+00
  171   -19.50     -51.9    0.349    0.1460E-01  18.542   3.491E+00   6.799E-04  -1.036E+01   0.000E+00   1.047E-03   0.000E+00   0.000E+00   6.321E-11   0.000E+00   2.729E-07   0.000E+00
  170   -20.00     -52.9    0.347    0.1477E-01  18.508   3.352E+00   6.799E-04  -1.004E+01   0.000E+00   1.047E-03   0.000E+00   0.000E+00   6.220E-11   0.000E+00   2.685E-07   0.000E+00
  169   -20.50     -53.9    0.346    0.1495E-01  18.474   3.211E+00   6.799E-04  -9.707E+00   0.000E+00   1.047E-03   0.000E+00   0.000E+00   6.119E-11   0.000E+00   2.641E-07   0.000E+00
  168   -21.00     -54.9    0.345    0.1512E-01  18.440   3.068E+00   6.799E-04  -9.391E+00   0.000E+00   1.047E-03   0.000E+00   0.000E+00   6.018E-11   0.000E+00   2.596E-07   0.000E+00
  167   -21.50     -55.9    0.344    0.1529E-01  18.406   2.962E+00   6.799E-04  -9.131E+00   0.000E+00   1.047E-03   0.000E+00   0.000E+00   5.917E-11   0.000E+00   2.552E-07   0.000E+00
  166   -22.00     -57.0    0.343    0.1547E-01  18.372   2.863E+00   6.799E-04  -8.906E+00   0.000E+00   1.047E-03   0.000E+00   0.000E+00   5.816E-11   0.000E+00   2.507E-07   0.000E+00
  165   -22.50     -58.1    0.342    0.1564E-01  18.338   2.764E+00   6.799E-04  -8.679E+00   0.000E+00   1.047E-03   0.000E+00   0.000E+00   5.715E-11   0.000E+00   2.463E-07   0.000E+00
  164   -23.00     -59.1    0.341    0.1581E-01  18.305   2.663E+00   6.799E-04  -8.444E+00   0.000E+00   1.047E-03   0.000E+00   0.000E+00   5.614E-11   0.000E+00   2.419E-07   0.000E+00
  163   -23.50     -60.2    0.339    0.1599E-01  18.271   2.560E+00   6.799E-04  -8.199E+00   0.000E+00   1.047E-03   0.000E+00   0.000E+00   5.513E-11   0.000E+00   2.374E-07   0.000E+00
  162   -24.00     -61.3    0.338    0.1616E-01  18.237   2.456E+00   6.799E-04  -7.945E+00   0.000E+00   1.047E-03   0.000E+00   0.000E+00   5.412E-11   0.000E+00   2.330E-07   0.000E+00
  161   -24.50     -62.5    0.337    0.1633E-01  18.203   2.351E+00   6.799E-04  -7.680E+00   0.000E+00   1.047E-03   0.000E+00   0.000E+00   5.311E-11   0.000E+00   2.285E-07   0.000E+00
  160   -25.00     -63.6    0.336    0.1650E-01  18.169   2.244E+00   6.799E-04  -7.436E+00   0.000E+00   1.047E-03   0.000E+00   0.000E+00   5.211E-11   0.000E+00   2.241E-07   0.000E+00
  159   -25.50     -64.8    0.335    0.1668E-01  18.135   2.172E+00   6.799E-04  -7.243E+00   0.000E+00   1.047E-03   0.000E+00   0.000E+00   5.110E-11   0.000E+00   2.197E-07   0.000E+00
  158   -26.00     -65.9    0.334    0.1685E-01  18.102   2.100E+00   6.799E-04  -7.074E+00   0.000E+00   1.047E-03   0.000E+00   0.000E+00   5.009E-11   0.000E+00   2.152E-07   0.000E+00
  157   -26.50     -67.1    0.332    0.1702E-01  18.068   2.026E+00   6.799E-04  -6.899E+00   0.000E+00   1.047E-03   0.000E+00   0.000E+00   4.908E-11   0.000E+00   2.108E-07   0.000E+00
  156   -27.00     -68.3    0.331    0.1720E-01  18.034   1.952E+00   6.799E-04  -6.715E+00   0.000E+00   1.047E-03   0.000E+00   0.000E+00   4.807E-11   0.000E+00   2.063E-07   0.000E+00
  155   -27.50     -69.6    0.330    0.1737E-01  18.000   1.876E+00   6.799E-04  -7.369E+00   0.000E+00   1.047E-03   0.000E+00   0.000E+00   4.706E-11   0.000E+00   2.019E-07   0.000E+00
  154   -28.00     -71.3    0.329    0.1763E-01  17.950   1.770E+00   6.799E-04  -7.941E+00   0.000E+00   1.047E-03   0.000E+00   0.000E+00   4.620E-11   0.000E+00   2.166E-07   0.000E+00
  153   -28.50     -73.1    0.327    0.1789E-01  17.900   1.661E+00   6.799E-04  -7.612E+00   0.000E+00   1.047E-03   0.000E+00   0.000E+00   4.533E-11   0.000E+00   2.314E-07   0.000E+00
  152   -29.00     -74.9    0.325    0.1815E-01  17.849   1.581E+00   6.799E-04  -7.342E+00   0.000E+00   1.047E-03   0.000E+00   0.000E+00   4.447E-11   0.000E+00   2.461E-07   0.000E+00
  151   -29.50     -76.7    0.324    0.1841E-01  17.799   1.508E+00   6.799E-04  -7.110E+00   0.000E+00   1.047E-03   0.000E+00   0.000E+00   4.360E-11   0.000E+00   2.608E-07   0.000E+00
  150   -30.00     -78.6    0.322    0.1866E-01  17.749   1.433E+00   6.799E-04  -6.872E+00   0.000E+00   1.047E-03   0.000E+00   0.000E+00   4.274E-11   0.000E+00   2.756E-07   0.000E+00
  149   -30.50     -80.5    0.321    0.1892E-01  17.699   1.356E+00   6.799E-04  -6.617E+00   0.000E+00   1.047E-03   0.000E+00   0.000E+00   4.187E-11   0.000E+00   2.903E-07   0.000E+00
  148   -31.00     -82.5    0.319    0.1918E-01  17.648   1.278E+00   6.799E-04  -6.344E+00   0.000E+00   1.047E-03   0.000E+00   0.000E+00   4.101E-11   0.000E+00   3.050E-07   0.000E+00
  147   -31.50     -84.5    0.317    0.1944E-01  17.598   1.198E+00   6.799E-04  -6.083E+00   0.000E+00   1.047E-03   0.000E+00   0.000E+00   4.014E-11   0.000E+00   3.198E-07   0.000E+00
  146   -32.00     -86.5    0.316    0.1970E-01  17.548   1.141E+00   6.799E-04  -5.874E+00   0.000E+00   1.047E-03   0.000E+00   0.000E+00   3.928E-11   0.000E+00   3.345E-07   0.000E+00
  145   -32.50     -88.6    0.314    0.1996E-01  17.498   1.087E+00   6.799E-04  -5.694E+00   0.000E+00   1.047E-03   0.000E+00   0.000E+00   3.841E-11   0.000E+00   3.492E-07   0.000E+00
  144   -33.00     -90.8    0.313    0.2022E-01  17.447   1.032E+00   6.799E-04  -5.506E+00   0.000E+00   1.047E-03   0.000E+00   0.000E+00   3.755E-11   0.000E+00   3.640E-07   0.000E+00
  143   -33.50     -93.0    0.311    0.2048E-01  17.397   9.764E-01   6.799E-04  -5.304E+00   0.000E+00   1.047E-03   0.000E+00   0.000E+00   3.669E-11   0.000E+00   3.787E-07   0.000E+00
  142   -34.00     -95.2    0.309    0.2074E-01  17.347   9.191E-01   6.799E-04  -5.086E+00   0.000E+00   1.047E-03   0.000E+00   0.000E+00   3.582E-11   0.000E+00   3.934E-07   0.000E+00
  141   -34.50     -97.5    0.308    0.2099E-01  17.297   8.605E-01   6.799E-04  -4.877E+00   0.000E+00   1.047E-03   0.000E+00   0.000E+00   3.496E-11   0.000E+00   4.081E-07   0.000E+00
  140   -35.00     -99.8    0.306    0.2125E-01  17.247   8.187E-01   6.799E-04  -4.711E+00   0.000E+00   1.047E-03   0.000E+00   0.000E+00   3.409E-11   0.000E+00   4.229E-07   0.000E+00
  139   -35.50    -102.2    0.305    0.2151E-01  17.196   7.799E-01   6.799E-04  -4.569E+00   0.000E+00   1.047E-03   0.000E+00   0.000E+00   3.323E-11   0.000E+00   4.376E-07   0.000E+00
  138   -36.00    -104.7    0.303    0.2177E-01  17.146   7.401E-01   6.799E-04  -4.421E+00   0.000E+00   1.047E-03   0.000E+00   0.000E+00   3.236E-11   0.000E+00   4.523E-07   0.000E+00
  137   -36.50    -107.2    0.302    0.2203E-01  17.096   6.994E-01   6.799E-04  -4.260E+00   0.000E+00   1.047E-03   0.000E+00   0.000E+00   3.150E-11   0.000E+00   4.671E-07   0.000E+00
  136   -37.00    -109.8    0.300    0.2229E-01  17.046   6.577E-01   6.799E-04  -4.086E+00   0.000E+00   1.047E-03   0.000E+00   0.000E+00   3.063E-11   0.000E+00   4.818E-07   0.000E+00
  135   -37.50    -112.4    0.298    0.2255E-01  16.995   6.150E-01   6.799E-04  -3.919E+00   0.000E+00   1.047E-03   0.000E+00   0.000E+00   2.977E-11   0.000E+00   4.965E-07   0.000E+00
  134   -38.00    -115.1    0.297    0.2281E-01  16.945   5.841E-01   6.799E-04  -3.784E+00   0.000E+00   1.047E-03   0.000E+00   0.000E+00   2.890E-11   0.000E+00   5.113E-07   0.000E+00
  133   -38.50    -117.9    0.295    0.2307E-01  16.895   5.560E-01   6.799E-04  -3.671E+00   0.000E+00   1.047E-03   0.000E+00   0.000E+00   2.804E-11   0.000E+00   5.260E-07   0.000E+00
  132   -39.00    -120.8    0.294    0.2332E-01  16.845   5.273E-01   6.799E-04  -3.554E+00   0.000E+00   1.047E-03   0.000E+00   0.000E+00   2.718E-11   0.000E+00   5.407E-07   0.000E+00
  131   -39.50    -123.7    0.292    0.2358E-01  16.795   4.978E-01   6.799E-04  -3.426E+00   0.000E+00   1.047E-03   0.000E+00   0.000E+00   2.631E-11   0.000E+00   5.555E-07   0.000E+00
  130   -40.00    -126.6    0.290    0.2384E-01  16.744   4.676E-01   6.799E-04  -3.286E+00   0.000E+00   1.047E-03   0.000E+00   0.000E+00   2.545E-11   0.000E+00   5.702E-07   0.000E+00
  129   -40.50    -129.7    0.289    0.2410E-01  16.694   4.366E-01   6.799E-04  -3.151E+00   0.000E+00   1.047E-03   0.000E+00   0.000E+00   2.458E-11   0.000E+00   5.849E-07   0.000E+00
  128   -41.00    -132.8    0.287    0.2436E-01  16.644   4.138E-01   6.799E-04  -3.042E+00   0.000E+00   1.047E-03   0.000E+00   0.000E+00   2.372E-11   0.000E+00   5.997E-07   0.000E+00
  127   -41.50    -136.0    0.286    0.2462E-01  16.594   3.936E-01   6.799E-04  -2.952E+00   0.000E+00   1.047E-03   0.000E+00   0.000E+00   2.285E-11   0.000E+00   6.144E-07   0.000E+00
  126   -42.00    -139.3    0.284    0.2488E-01  16.543   3.728E-01   6.799E-04  -2.858E+00   0.000E+00   1.047E-03   0.000E+00   0.000E+00   2.199E-11   0.000E+00   6.291E-07   0.000E+00
  125   -42.50    -142.7    0.282    0.2514E-01  16.493   3.516E-01   6.799E-04  -2.755E+00   0.000E+00   1.047E-03   0.000E+00   0.000E+00   2.112E-11   0.000E+00   6.439E-07   0.000E+00
  124   -43.00    -146.2    0.281    0.2539E-01  16.443   3.297E-01   6.799E-04  -2.642E+00   0.000E+00   1.047E-03   0.000E+00   0.000E+00   2.026E-11   0.000E+00   6.586E-07   0.000E+00
  123   -43.50    -149.7    0.279    0.2565E-01  16.393   3.073E-01   6.799E-04  -2.533E+00   0.000E+00   1.047E-03   0.000E+00   0.000E+00   1.939E-11   0.000E+00   6.733E-07   0.000E+00
  122   -44.00    -153.4    0.278    0.2591E-01  16.343   2.909E-01   6.799E-04  -2.445E+00   0.000E+00   1.047E-03   0.000E+00   0.000E+00   1.853E-11   0.000E+00   6.881E-07   0.000E+00
  121   -44.50    -157.1    0.276    0.2617E-01  16.292   2.764E-01   6.799E-04  -2.373E+00   0.000E+00   1.047E-03   0.000E+00   0.000E+00   1.767E-11   0.000E+00   7.028E-07   0.000E+00
  120   -45.00    -161.0    0.275    0.2643E-01  16.242   2.615E-01   6.799E-04  -2.297E+00   0.000E+00   1.047E-03   0.000E+00   0.000E+00   1.680E-11   0.000E+00   7.175E-07   0.000E+00
  119   -45.50    -164.9    0.273    0.2669E-01  16.192   2.461E-01   6.799E-04  -2.214E+00   0.000E+00   1.047E-03   0.000E+00   0.000E+00   1.594E-11   0.000E+00   7.322E-07   0.000E+00
  118   -46.00    -169.0    0.271    0.2695E-01  16.142   2.304E-01   6.799E-04  -2.122E+00   0.000E+00   1.047E-03   0.000E+00   0.000E+00   1.507E-11   0.000E+00   7.470E-07   0.000E+00
  117   -46.50    -173.1    0.270    0.2721E-01  16.091   2.142E-01   6.799E-04  -2.033E+00   0.000E+00   1.047E-03   0.000E+00   0.000E+00   1.421E-11   0.000E+00   7.617E-07   0.000E+00
  116   -47.00    -177.4    0.268    0.2747E-01  16.041   2.028E-01   6.799E-04  -1.964E+00   0.000E+00   1.047E-03   0.000E+00   0.000E+00   1.334E-11   0.000E+00   7.764E-07   0.000E+00
